# Step, Volume[km3], Depth[km], CR diameter[km], DR diameter[km]
0 0.0 0.0 0.0 0.0
15 2338.47147359 8.86111699343 21.1077583045 26.2652240968
30 4355.03162224 11.195176639 26.819037947 30.430752855
45 6036.78130256 12.5446840644 30.6178265916 33.4456727489
60 7526.53590123 13.4281732798 33.6903442256 35.8827836134
75 8540.09672132 13.8462720871 36.0821751123 37.8044223115
90 9112.42239748 13.8760287166 38.0092101465 39.3322358658
105 9465.72606095 13.7083777308 39.6150867434 40.6325600834
120 9804.37081511 13.5209234238 41.11010874 41.9500506554
135 10037.3916742 13.2205709219 42.6582348515 43.2225652236
150 9983.41974642 12.6210829854 43.9010638843 44.2754012454
165 9731.50274174 11.755297178 45.0768626273 45.2627932805
180 9554.0567644 10.849912405 46.3772510324 46.4619613213
195 9494.13036265 9.91368382573 47.9415003814 48.0130969005
